DeviceSN	40004
LaserWavelength_nm	785
Exposure_ms	500
GainMultiplier	1
LaserCurrent_mA	2450
LaserPower_mA	112.620316
Wavenumber [cm^-1]	Raman [%]
50	0.00890546851
51	0.0140277967
52	0.0184736364
53	0.0179676618
54	0.0149774272
55	0.013208637
56	0.0194192883
57	0.0339270718
58	0.0430197604
59	0.041972544
60	0.0393310264
61	0.0388210751
62	0.0382612683
63	0.0363418534
64	0.0353399813
65	0.0305456892
66	0.0247025844
67	0.0242382437
68	0.0285963062
69	0.0336860158
70	0.0358189046
71	0.0339549184
72	0.0309591126
73	0.0301823821
74	0.0323659219
75	0.0340609923
76	0.0346157588
77	0.036494337
78	0.0366468169
79	0.0305082966
80	0.0207863208
81	0.0158745497
82	0.0178674236
83	0.0214946326
84	0.0221949872
85	0.0184282884
86	0.0139103197
87	0.012747746
88	0.0155732986
89	0.0193723515
90	0.0231061652
91	0.0313255973
92	0.0376510732
93	0.0349597037
94	0.0255137868
95	0.0185168609
96	0.0186019856
97	0.0207452178
98	0.0219897348
99	0.0238322448
100	0.0273390617
101	0.0303719901
102	0.0368533954
103	0.043925371
104	0.0446883105
105	0.0359682068
106	0.0266238563
107	0.0248134322
108	0.0248606335
109	0.0250446722
110	0.0245164242
111	0.0225338954
112	0.0203402787
113	0.0175842028
114	0.0138612594
115	0.0121205803
116	0.0230162684
117	0.0409038439
118	0.0474974215
119	0.0446188338
120	0.0397330485
121	0.0345701464
122	0.0250995681
123	0.0160575286
124	0.0129962247
125	0.0123730376
126	0.0123536792
127	0.0119700879
128	0.0113589671
129	0.0110040167
130	0.0147236446
131	0.0226412956
132	0.027016595
133	0.0276861899
134	0.0279240608
135	0.027680885
136	0.026920598
137	0.0261253044
138	0.0259656645
139	0.0268946104
140	0.0278471578
141	0.0269224532
142	0.0230096392
143	0.0201607496
144	0.0220639873
145	0.0266901515
146	0.0292871166
147	0.0254978761
148	0.0188406538
149	0.0163073335
150	0.0198947676
151	0.0248855632
152	0.0270051919
153	0.028784059
154	0.0299296603
155	0.0289238133
156	0.0265986621
157	0.0243355669
158	0.0216736309
159	0.0170731898
160	0.0143409809
161	0.0135543076
162	0.0125892963
163	0.0133698713
164	0.0171243716
165	0.0212395228
166	0.0225975402
167	0.0241422467
168	0.0258428827
169	0.0266763624
170	0.0282894857
171	0.0289874561
172	0.0245410874
173	0.0139662735
174	0.00742705725
175	0.013256371
176	0.0252236743
177	0.0317175463
178	0.032397747
179	0.0320845619
180	0.0319912136
181	0.0325144269
182	0.0321813561
183	0.0290245824
184	0.0227558557
185	0.0182126947
186	0.0170559511
187	0.0144316759
188	0.0127490703
189	0.0158201866
190	0.0217595529
191	0.02430401
192	0.0259988122
193	0.0278601516
194	0.0269940551
195	0.0241000839
196	0.0217075776
197	0.0229043607
198	0.0293268934
199	0.0345115401
200	0.0311789513
201	0.0214930419
202	0.0160222575
203	0.0161047317
204	0.0164038613
205	0.0170885697
206	0.0210562795
207	0.0262820311
208	0.028525766
209	0.0260701478
210	0.0230852161
211	0.0231602639
212	0.0244665705
213	0.0255397744
214	0.0263581388
215	0.0273841433
216	0.0271149799
217	0.0274796076
218	0.0288405418
219	0.0290622395
220	0.0265885852
221	0.0232620947
222	0.0207290426
223	0.0177947599
224	0.0165860429
225	0.0200379677
226	0.0271613859
227	0.0325698517
228	0.0343534909
229	0.0349639468
230	0.0357245021
231	0.0379133448
232	0.0397980176
233	0.0379685014
234	0.0284024552
235	0.0194352008
236	0.0182174668
237	0.0201928355
238	0.0217386018
239	0.0221493766
240	0.022926636
241	0.0232183393
242	0.0225185156
243	0.0223957337
244	0.0257039275
245	0.0367725119
246	0.0464565679
247	0.0447649509
248	0.035068959
249	0.0273189098
250	0.0248200614
251	0.0225545801
252	0.0220507272
253	0.026884798
254	0.033338625
255	0.0352036767
256	0.0367587246
257	0.037426196
258	0.0336396098
259	0.0249812938
260	0.0189157017
261	0.0220045857
262	0.0302327685
263	0.0349817127
264	0.0389488935
265	0.0432292558
266	0.0422332212
267	0.0342174508
268	0.0262128171
269	0.024282001
270	0.0246400014
271	0.0256569888
272	0.025419116
273	0.0235523414
274	0.0226150416
275	0.0239489265
276	0.0249799695
277	0.02248298
278	0.0168432742
279	0.0126772057
280	0.014062006
281	0.0188913047
282	0.0226866417
283	0.0219775364
284	0.0190193895
285	0.0182201192
286	0.0231117364
287	0.0292399134
288	0.0303653628
289	0.0277124438
290	0.0251719635
291	0.026721444
292	0.0326539129
293	0.0357335173
294	0.031161448
295	0.0237911399
296	0.0199849289
297	0.0183344148
298	0.0181230605
299	0.0221053548
300	0.0318769217
301	0.0394813865
302	0.0384195819
303	0.0336579084
304	0.0303751715
305	0.0307403337
306	0.0321832113
307	0.0323935002
308	0.0273517929
309	0.0223652367
310	0.0254093036
311	0.0367658846
312	0.0460248478
313	0.0439198017
314	0.0350549072
315	0.0304372273
316	0.0318291858
317	0.033374954
318	0.0316114686
319	0.02311147
320	0.0153110307
321	0.016511526
322	0.0245609768
323	0.0322890207
324	0.0371350236
325	0.0416704938
326	0.0444756299
327	0.0469508767
328	0.0486774966
329	0.0478021204
330	0.0442218482
331	0.0393657647
332	0.0314939916
333	0.0193055235
334	0.0130097475
335	0.0160798039
336	0.0215439573
337	0.0245201364
338	0.0333288126
339	0.0420486517
340	0.0411889181
341	0.034048263
342	0.0280407444
343	0.0272213183
344	0.0284037832
345	0.0290455315
346	0.0292924196
347	0.0296623539
348	0.0303067546
349	0.0327716544
350	0.0350063778
351	0.0365892723
352	0.0392061248
353	0.0396200791
354	0.0316870473
355	0.0210180935
356	0.0197131149
357	0.0323866084
358	0.0459169112
359	0.0490755402
360	0.0473672189
361	0.043808423
362	0.038224671
363	0.0319723859
364	0.0301468484
365	0.0337944776
366	0.037840154
367	0.0391183496
368	0.0426447913
369	0.044021368
370	0.0377364643
371	0.0274772234
372	0.0228327587
373	0.0251520742
374	0.0291783884
375	0.0321757868
376	0.0381891355
377	0.0426612273
378	0.0415535495
379	0.0381610282
380	0.0357669294
381	0.0339909792
382	0.0321070999
383	0.0322922021
384	0.0405219793
385	0.0481664874
386	0.0457294323
387	0.0373111069
388	0.0327936672
389	0.0315809734
390	0.0298649576
391	0.0304117687
392	0.0342354849
393	0.037627209
394	0.0375012457
395	0.0360416621
396	0.0348313563
397	0.0349681899
398	0.0357671976
399	0.0367043614
400	0.0442746207
401	0.0517226309
402	0.0512190424
403	0.0484189428
404	0.0452881642
405	0.0392636694
406	0.0312205851
407	0.0285453927
408	0.0319601893
409	0.0358952805
410	0.0373174734
411	0.0410038158
412	0.0435655117
413	0.0401387848
414	0.0334550403
415	0.0313316956
416	0.0348358639
417	0.0385977887
418	0.0386205912
419	0.0376553163
420	0.0374179743
421	0.0401393138
422	0.0446790271
423	0.0463788696
424	0.0428386405
425	0.038822934
426	0.0417253897
427	0.0547240004
428	0.0639662594
429	0.0605517179
430	0.0519241691
431	0.0454777703
432	0.0366876535
433	0.0289362743
434	0.0285917968
435	0.0310776494
436	0.0331392065
437	0.0344357006
438	0.0359960496
439	0.0366030633
440	0.0383336619
441	0.0401838645
442	0.0400104336
443	0.0384209082
444	0.0369448885
445	0.0367703922
446	0.0371726789
447	0.0367939956
448	0.0357380249
449	0.0355102308
450	0.0378796645
451	0.0425814092
452	0.0455740318
453	0.0477262773
454	0.0505109951
455	0.0501150712
456	0.0406126715
457	0.0315899886
458	0.0322924666
459	0.0368921161
460	0.0406328216
461	0.0424657874
462	0.0440924391
463	0.0450325236
464	0.0402650125
465	0.0366399214
466	0.0405514129
467	0.0472728088
468	0.0519180708
469	0.0475769788
470	0.0394410789
471	0.0363750011
472	0.0343953893
473	0.0331360213
474	0.0329403132
475	0.0326966122
476	0.0321463495
477	0.029213395
478	0.0261489078
479	0.0274493787
480	0.0340198874
481	0.0385015234
482	0.0352903903
483	0.0291266777
484	0.0271754414
485	0.0285369046
486	0.0308413692
487	0.0346603096
488	0.0414275862
489	0.0449967198
490	0.0442178696
491	0.0428813323
492	0.042676609
493	0.0460168906
494	0.0487740301
495	0.0476719141
496	0.0456822254
497	0.0442870855
498	0.0380103998
499	0.0307379477
500	0.0309766158
501	0.0340647027
502	0.0368335098
503	0.037500713
504	0.0372832641
505	0.0390409119
506	0.0443732664
507	0.04902675
508	0.0479564592
509	0.0425928123
510	0.0399685316
511	0.0441579409
512	0.0499562249
513	0.0511235744
514	0.0487909988
515	0.0453873388
516	0.0410321951
517	0.0357282124
518	0.0344494879
519	0.0439099856
520	0.055144053
521	0.0551708378
522	0.047165677
523	0.0411629304
524	0.0420926735
525	0.0447819196
526	0.0446784943
527	0.0375614427
528	0.0308172386
529	0.0326464921
530	0.0400114954
531	0.0452534221
532	0.0436318107
533	0.0397221781
534	0.0392026752
535	0.0405723639
536	0.0408786535
537	0.0380735174
538	0.034218777
539	0.0332969911
540	0.0376317166
541	0.0421544611
542	0.0436413549
543	0.046785932
544	0.0482815765
545	0.0414660387
546	0.0315213054
547	0.0293343198
548	0.0342951491
549	0.0390295088
550	0.0411860012
551	0.0439526811
552	0.0448845476
553	0.045591265
554	0.0463215858
555	0.0465804115
556	0.047207579
557	0.0475218222
558	0.043794103
559	0.038771484
560	0.0388345979
561	0.0424323753
562	0.0455634221
563	0.049921751
564	0.0570191815
565	0.0592844039
566	0.0591555163
567	0.0588526763
568	0.0592660978
569	0.0606530234
570	0.0590040982
571	0.0487403497
572	0.0376539901
573	0.0368160047
574	0.0413634107
575	0.0455207303
576	0.0479349792
577	0.0505693331
578	0.0526595265
579	0.0535844937
580	0.0537711829
581	0.0507979244
582	0.0433080196
583	0.0399929322
584	0.0403347537
585	0.0413363613
586	0.0437095091
587	0.0487414077
588	0.0502444804
589	0.0419136733
590	0.0311853159
591	0.030750148
592	0.041500248
593	0.0511503592
594	0.0524609089
595	0.0510196239
596	0.050403066
597	0.0505552813
598	0.0507006049
599	0.0535555929
600	0.0613329634
601	0.0646342561
602	0.0601361766
603	0.0544370674
604	0.0521527566
605	0.0484873615
606	0.0455201939
607	0.0432358868
608	0.0413414016
609	0.0425991751
610	0.0494849905
611	0.0543071255
612	0.0478363298
613	0.0355696343
614	0.0327188857
615	0.0419428423
616	0.0511625558
617	0.0509994626
618	0.0465594605
619	0.0445761383
620	0.0491116084
621	0.0541830212
622	0.0517730117
623	0.0426416062
624	0.0379642583
625	0.0487146229
626	0.06331072
627	0.064186357
628	0.0557921641
629	0.0479946472
630	0.0461322442
631	0.0468368456
632	0.0473266467
633	0.0515316948
634	0.0550740436
635	0.0536460206
636	0.0504237488
637	0.049219802
638	0.0502858534
639	0.0514319837
640	0.0531864539
641	0.0576055087
642	0.058927726
643	0.047689151
644	0.0352911875
645	0.036353521
646	0.0438898355
647	0.0480437055
648	0.043414358
649	0.0372273102
650	0.0372527689
651	0.0394219868
652	0.0407640897
653	0.0380703323
654	0.034404669
655	0.0370366387
656	0.0483348779
657	0.05650419
658	0.0538520701
659	0.0478631184
660	0.0458227769
661	0.0420558117
662	0.0389825739
663	0.04081209
664	0.0443525836
665	0.0442730263
666	0.0438182354
667	0.0441147126
668	0.0456275977
669	0.0491177067
670	0.0511736944
671	0.0483213589
672	0.0451738648
673	0.0462754443
674	0.0481770933
675	0.0481222011
676	0.0399738364
677	0.0311564095
678	0.0327138454
679	0.0408314466
680	0.0448638611
681	0.0424623415
682	0.0395917036
683	0.0413830355
684	0.0482327864
685	0.051889956
686	0.048355829
687	0.0438651741
688	0.0448972732
689	0.0499906987
690	0.0540729687
691	0.0523301736
692	0.0479439944
693	0.0467899069
694	0.0472948216
695	0.0473319441
696	0.0467074364
697	0.04613702
698	0.0448816307
699	0.0416028723
700	0.0394713096
701	0.044295039
702	0.0531416386
703	0.0568987876
704	0.0603668839
705	0.0628302023
706	0.0622032955
707	0.0604772046
708	0.0604594387
709	0.0625642166
710	0.0643449351
711	0.0646485835
712	0.0647180602
713	0.0647366196
714	0.0647671148
715	0.0637967959
716	0.0584458821
717	0.0492807962
718	0.0433523059
719	0.0375428796
720	0.0345303714
721	0.0418399461
722	0.0562358238
723	0.0624517798
724	0.0601799339
725	0.0572074652
726	0.057255201
727	0.0570613518
728	0.0552458838
729	0.0513765588
730	0.0484982356
731	0.0498541296
732	0.0536789037
733	0.0553612411
734	0.0546036065
735	0.0536815524
736	0.0550167672
737	0.0579778254
738	0.0586299151
739	0.0558841899
740	0.0535415336
741	0.0580337793
742	0.0673781335
743	0.0681129619
744	0.055918932
745	0.0453435816
746	0.0461245552
747	0.0507690236
748	0.0553209335
749	0.0639004856
750	0.0694731027
751	0.0637777075
752	0.0536075681
753	0.0510811433
754	0.0535749495
755	0.0564572513
756	0.0581136048
757	0.0591075197
758	0.0583875403
759	0.0517555103
760	0.04672971
761	0.0481229983
762	0.0508597121
763	0.051992327
764	0.0525818318
765	0.0528608039
766	0.0479901358
767	0.039882876
768	0.0392636731
769	0.0446562245
770	0.0484897494
771	0.0510424264
772	0.0545309484
773	0.0550504476
774	0.0543299317
775	0.0531400442
776	0.0484017059
777	0.0426386893
778	0.0445644706
779	0.0567452461
780	0.0641630217
781	0.0643810034
782	0.064236477
783	0.064382866
784	0.0625737607
785	0.0613830797
786	0.0530074537
787	0.0432234257
788	0.0450815782
789	0.0539918207
790	0.0589510575
791	0.0589436367
792	0.0581128076
793	0.0567542613
794	0.053316392
795	0.0517348275
796	0.0477946997
797	0.0432780534
798	0.0415135063
799	0.0410178714
800	0.0424843505
801	0.0490750149
802	0.055794552
803	0.0583488271
804	0.058633633
805	0.0575477034
806	0.0564789996
807	0.0550918095
808	0.0541649833
809	0.0543423966
810	0.0532233156
811	0.0469779223
812	0.0434753485
813	0.0469765961
814	0.0514746755
815	0.0520193726
816	0.0514802486
817	0.0503765419
818	0.0435514599
819	0.0361045115
820	0.0376211107
821	0.0444483161
822	0.0473507717
823	0.0490967557
824	0.0499745235
825	0.0455636904
826	0.0379976742
827	0.0362604409
828	0.0425413661
829	0.0486125313
830	0.0514579713
831	0.0547666922
832	0.0545715168
833	0.0485128164
834	0.0446771719
835	0.047858607
836	0.0530098416
837	0.0551395454
838	0.0534031093
839	0.0520493388
840	0.0479524806
841	0.0435453579
842	0.0467888489
843	0.0551673882
844	0.0599428564
845	0.0590727776
846	0.0572337173
847	0.0556174107
848	0.0523529761
849	0.052555047
850	0.0538242236
851	0.0543039441
852	0.0570547208
853	0.0620494932
854	0.0616991818
855	0.0556890108
856	0.0520859361
857	0.0578086413
858	0.0658944175
859	0.0659509078
860	0.0602976754
861	0.0562774613
862	0.0520140678
863	0.0488655195
864	0.0526120588
865	0.0610714853
866	0.0652529374
867	0.0647716299
868	0.0630107895
869	0.0567871407
870	0.0464671776
871	0.0441521034
872	0.0498949662
873	0.0553108566
874	0.0583249554
875	0.0604551956
876	0.0595792867
877	0.0554389432
878	0.0529939272
879	0.0628307313
880	0.0733981133
881	0.0706789047
882	0.06221205
883	0.0553623028
884	0.0465403683
885	0.0406911634
886	0.0383723788
887	0.0357372314
888	0.0388226658
889	0.053272374
890	0.0608073622
891	0.0598015115
892	0.0586065874
893	0.0609677956
894	0.0677454174
895	0.0681450516
896	0.0537770241
897	0.0415530205
898	0.0449169017
899	0.052577585
900	0.0554354936
901	0.0618498065
902	0.065692611
903	0.0680527687
904	0.0707494393
905	0.0691498369
906	0.0649066046
907	0.0633825809
908	0.0642778426
909	0.0650909096
910	0.0651367828
911	0.0649119094
912	0.0618954152
913	0.0481479242
914	0.0398709439
915	0.0489193499
916	0.0619290993
917	0.0651492476
918	0.0648578107
919	0.0649124384
920	0.0650102943
921	0.064207837
922	0.0603745803
923	0.0552922934
924	0.057655625
925	0.0676573738
926	0.0758261532
927	0.0772825629
928	0.0744453296
929	0.067999728
930	0.058787711
931	0.0543776676
932	0.0580907986
933	0.0636207163
934	0.0678711161
935	0.0719979405
936	0.0724179894
937	0.0709976554
938	0.0707703903
939	0.0758993477
940	0.0814533979
941	0.0773403645
942	0.0648437515
943	0.0602536574
944	0.0647350252
945	0.0685688257
946	0.0662900805
947	0.0630725771
948	0.0626283959
949	0.0591504797
950	0.0584254637
951	0.0669042468
952	0.0748266727
953	0.073303178
954	0.069249019
955	0.0659893602
956	0.0571873114
957	0.0517467596
958	0.0503749549
959	0.0492648855
960	0.0505611151
961	0.0531527735
962	0.056250412
963	0.0633101836
964	0.0688345358
965	0.0656252578
966	0.0586384088
967	0.0572180748
968	0.0595453419
969	0.0606201403
970	0.0565076396
971	0.0528014041
972	0.056109596
973	0.0622624382
974	0.0634915754
975	0.0618068501
976	0.0609404892
977	0.0685003996
978	0.0778996423
979	0.0759165883
980	0.0671010166
981	0.064745903
982	0.0683635622
983	0.0694526806
984	0.0597230159
985	0.04774829
986	0.049211584
987	0.0595906898
988	0.0653221533
989	0.066010572
990	0.0659132451
991	0.0646894127
992	0.0631502792
993	0.066934742
994	0.0752424896
995	0.0779855624
996	0.0593997538
997	0.0413024165
998	0.0477276072
999	0.0635721907
1000	0.0722387284
1001	0.077816911
1002	0.080651477
1003	0.0782788619
1004	0.0743135363
1005	0.0705264211
1006	0.0634698272
1007	0.0574649572
1008	0.0491665006
1009	0.045086354
1010	0.0497549474
1011	0.0559934452
1012	0.0546757355
1013	0.0478843302
1014	0.0493783839
1015	0.065293245
1016	0.0767651796
1017	0.0719637275
1018	0.0638384372
1019	0.0619505793
1020	0.0592048429
1021	0.0605517216
1022	0.0652301311
1023	0.0673418045
1024	0.0631099716
1025	0.0577837154
1026	0.0580303371
1027	0.0620131642
1028	0.0636840984
1029	0.057034567
1030	0.0534874387
1031	0.0610913709
1032	0.0700421855
1033	0.0698401183
1034	0.0635777563
1035	0.0618951544
1036	0.0672580078
1037	0.0724007487
1038	0.0770001337
1039	0.0816668719
1040	0.0755246431
1041	0.0553524941
1042	0.0509851463
1043	0.0734588429
1044	0.0894108266
1045	0.0847440958
1046	0.0774334446
1047	0.0732339695
1048	0.0676473007
1049	0.066944018
1050	0.0750425309
1051	0.0799840093
1052	0.0697048753
1053	0.0568327606
1054	0.059210144
1055	0.0691262409
1056	0.0721228421
1057	0.0654470474
1058	0.0609386265
1059	0.0702535436
1060	0.0810885057
1061	0.0741724595
1062	0.0575731546
1063	0.0542885661
1064	0.061117366
1065	0.0656785592
1066	0.063459754
1067	0.0610094294
1068	0.0661190301
1069	0.0760335326
1070	0.0785403326
1071	0.0768434107
1072	0.0743798316
1073	0.0671911836
1074	0.0608725958
1075	0.0667385086
1076	0.0786397755
1077	0.0770004019
1078	0.0595034435
1079	0.0508045554
1080	0.0559817739
1081	0.0634639934
1082	0.0709475353
1083	0.0786928162
1084	0.0773971155
1085	0.0685815513
1086	0.0626819581
1087	0.057685066
1088	0.0558727868
1089	0.0602398664
1090	0.0654690638
1091	0.0668976158
1092	0.0669371337
1093	0.0658217594
1094	0.0578150079
1095	0.0530811772
1096	0.0585795343
1097	0.0647978783
1098	0.0683529526
1099	0.0756238252
1100	0.0767914355
1101	0.0754355341
1102	0.0773210078
1103	0.0867435858
1104	0.0940743834
1105	0.0893379003
1106	0.0800977647
1107	0.0769195184
1108	0.0762663633
1109	0.0734821856
1110	0.0653672293
1111	0.0603748448
1112	0.0683826581
1113	0.0789558813
1114	0.0767871961
1115	0.0691265017
1116	0.0672052354
1117	0.0673144907
1118	0.0677173063
1119	0.0751692951
1120	0.08249107
1121	0.0718099251
1122	0.0518194214
1123	0.050884109
1124	0.0570594892
1125	0.0600293055
1126	0.0604278818
1127	0.0604360998
1128	0.0608248636
1129	0.0613035262
1130	0.0604825094
1131	0.059017621
1132	0.0618829578
1133	0.0721655339
1134	0.0769333094
1135	0.0704794824
1136	0.0630325377
1137	0.0618155971
1138	0.0625936538
1139	0.0607100353
1140	0.0556622297
1141	0.0558892265
1142	0.0630858392
1143	0.0701053068
1144	0.0758635551
1145	0.0799084231
1146	0.0786421672
1147	0.0745333731
1148	0.0707420185
1149	0.0673905984
1150	0.0659448057
1151	0.0702264905
1152	0.0739531517
1153	0.0734508857
1154	0.0726219192
1155	0.0710978955
1156	0.0677170455
1157	0.0677090883
1158	0.0727927014
1159	0.0752180889
1160	0.0705661997
1161	0.0663293302
1162	0.0697534084
1163	0.0756179839
1164	0.0766834989
1165	0.0764443055
1166	0.0768510997
1167	0.0774050727
1168	0.0766209215
1169	0.0649474412
1170	0.0533044636
1171	0.0587492548
1172	0.0717605948
1173	0.079402186
1174	0.0871530324
1175	0.0900666341
1176	0.0855123401
1177	0.0813412294
1178	0.0770240054
1179	0.073197104
1180	0.0742018968
1181	0.0767850727
1182	0.0776463971
1183	0.0756575018
1184	0.0748582333
1185	0.074792996
1186	0.0747667402
1187	0.0764225572
1188	0.0780696273
1189	0.0769195184
1190	0.0750404149
1191	0.0750608295
1192	0.0763846412
1193	0.0773780271
1194	0.0791375339
1195	0.0820869282
1196	0.0871472061
1197	0.0926739424
1198	0.0948489904
1199	0.0939492136
1200	0.0902809054
1201	0.0783074945
1202	0.07490623
1203	0.0781648308
1204	0.0823974609
1205	0.0869207308
1206	0.0897513255
1207	0.0849183202
1208	0.0765397698
1209	0.0763305426
1210	0.0786718652
1211	0.0798569769
1212	0.0817798451
1213	0.0818174928
1214	0.0744341984
1215	0.0683381036
1216	0.0685685501
1217	0.0691530183
1218	0.0704717934
1219	0.0732984096
1220	0.0752305537
1221	0.0754989237
1222	0.0761899948
1223	0.0787331238
1224	0.0792945251
1225	0.0756179914
1226	0.0726579875
1227	0.0776596516
1228	0.0878130868
1229	0.0908224136
1230	0.0920210481
1231	0.0941751599
1232	0.099265933
1233	0.101312898
1234	0.0923395455
1235	0.0823865905
1236	0.0776426792
1237	0.072968252
1238	0.0766683891
1239	0.0892554373
1240	0.0945299715
1241	0.0958214253
1242	0.0955615491
1243	0.086934261
1244	0.0800754949
1245	0.0858936757
1246	0.0943191499
1247	0.0958715528
1248	0.095689632
1249	0.0956055671
1250	0.095133543
1251	0.0916545689
1252	0.0758768097
1253	0.0675330013
1254	0.0772743374
1255	0.0881016105
1256	0.0931138918
1257	0.0983017087
1258	0.103701696
1259	0.1114223
1260	0.111753792
1261	0.107257038
1262	0.104559571
1263	0.0994727686
1264	0.0970982984
1265	0.100750968
1266	0.104369432
1267	0.101024643
1268	0.0948351994
1269	0.0959126577
1270	0.100783587
1271	0.104128644
1272	0.108811818
1273	0.112187907
1274	0.112768665
1275	0.113622293
1276	0.115230903
1277	0.115845338
1278	0.111039646
1279	0.102461949
1280	0.102606736
1281	0.111165084
1282	0.116043173
1283	0.120912507
1284	0.121791348
1285	0.120908
1286	0.120413691
1287	0.117337272
1288	0.11488007
1289	0.118880928
1290	0.124987885
1291	0.129045233
1292	0.135079786
1293	0.139268398
1294	0.145791963
1295	0.149918005
1296	0.150524482
1297	0.150061727
1298	0.14129813
1299	0.133697376
1300	0.144321516
1301	0.160567865
1302	0.164811626
1303	0.166607201
1304	0.174174547
1305	0.19289957
1306	0.205160707
1307	0.218637705
1308	0.227678686
1309	0.246102989
1310	0.265491247
1311	0.293100268
1312	0.325801402
1313	0.34789139
1314	0.373693973
1315	0.413541019
1316	0.475240231
1317	0.557587087
1318	0.674223959
1319	0.798623085
1320	0.922613859
1321	1.09226739
1322	1.36631751
1323	1.75996363
1324	2.3394413
1325	3.21366501
1326	4.61167669
1327	6.88650227
1328	10.6344528
1329	16.7715683
1330	23.9401875
1331	32.9235573
1332	35.3236885
1333	30.4874973
1334	24.196867
1335	17.0637302
1336	10.9216852
1337	7.33067703
1338	4.83935213
1339	3.3676796
1340	2.37059975
1341	1.77065074
1342	1.36270499
1343	1.06334329
1344	0.828935981
1345	0.669610739
1346	0.557048142
1347	0.479307115
1348	0.42939806
1349	0.384094536
1350	0.324477047
1351	0.270215005
1352	0.236238629
1353	0.213071972
1354	0.208550841
1355	0.210297346
1356	0.203456879
1357	0.182520732
1358	0.164107561
1359	0.144069076
1360	0.134365648
1361	0.127975196
1362	0.124388307
1363	0.123883918
1364	0.123817086
1365	0.124285415
1366	0.124198437
1367	0.120738819
1368	0.113264024
1369	0.111619607
1370	0.110234812
1371	0.106465459
1372	0.100058302
1373	0.0972576737
1374	0.0916036442
1375	0.0890029743
1376	0.0889560282
1377	0.0891703069
1378	0.0896129012
1379	0.0894781873
1380	0.087696664
1381	0.0852105543
1382	0.0805692673
1383	0.071852088
1384	0.0730631873
1385	0.0803762153
1386	0.0818424225
1387	0.0803642794
1388	0.0767935589
1389	0.0688907579
1390	0.0655860081
1391	0.0764859393
1392	0.0842256546
1393	0.0833964199
1394	0.0820405185
1395	0.0775678977
1396	0.0723774135
1397	0.0743175149
1398	0.0792133734
1399	0.0818281099
1400	0.0827334523
1401	0.0811593086
1402	0.0761573687
1403	0.0725500509
1404	0.062640056
1405	0.0593252406
1406	0.0656637102
1407	0.069738023
1408	0.0656525716
1409	0.0628731623
1410	0.0678549409
1411	0.072437346
1412	0.073921591
1413	0.0754090175
1414	0.0731981695
1415	0.0705733597
1416	0.0699390322
1417	0.068888098
1418	0.0694961697
1419	0.0723225251
1420	0.0719443709
1421	0.0689074621
1422	0.0666303113
1423	0.06570746
1424	0.0657536089
1425	0.0707613751
1426	0.0741881058
1427	0.0701326206
1428	0.0648007989
1429	0.0577786751
1430	0.0522439815
1431	0.0600438938
1432	0.0715532154
1433	0.0730295107
1434	0.0710567906
1435	0.0680883005
1436	0.0601438656
1437	0.0603960603
1438	0.0674969405
1439	0.0684874058
1440	0.0585739687
1441	0.0550104007
1442	0.0590698645
1443	0.061847955
1444	0.06543459
1445	0.0681577846
1446	0.0704229996
1447	0.0720793456
1448	0.0632706732
1449	0.0531145856
1450	0.0543405414
1451	0.056531772
1452	0.0562387407
1453	0.0550241917
1454	0.057455942
1455	0.0647175312
1456	0.068673037
1457	0.0716908574
1458	0.0695314407
1459	0.0620083883
1460	0.0589144677
1461	0.0586118922
1462	0.0584617928
1463	0.056481652
1464	0.0559435859
1465	0.0622815266
1466	0.067069985
1467	0.0587614551
1468	0.0513526946
1469	0.0561695248
1470	0.0621285215
1471	0.0593650118
1472	0.0543530062
1473	0.0533861369
1474	0.0515873842
1475	0.0511845648
1476	0.0509798452
1477	0.0507668965
1478	0.0503603667
1479	0.0529865026
1480	0.0622767545
1481	0.0618837476
1482	0.050808534
1483	0.0479896106
1484	0.0508859679
1485	0.0539568141
1486	0.0548401512
1487	0.05713268
1488	0.0675287619
1489	0.0724177286
1490	0.0568332896
1491	0.0440669805
1492	0.0448487476
1493	0.045921158
1494	0.0420383066
1495	0.039046485
1496	0.0503245667
1497	0.0667318776
1498	0.0760269016
1499	0.0853861049
1500	0.0757277757
1501	0.05467733
1502	0.0496191755
1503	0.0495536774
1504	0.0530302599
1505	0.0628211796
1506	0.0651996285
1507	0.0665244982
1508	0.0650301799
1509	0.0570830926
1510	0.0552087612
1511	0.0601653457
1512	0.063364014
1513	0.0690074414
1514	0.0719321668
1515	0.0690286532
1516	0.0656687468
1517	0.0649689212
1518	0.0655650645
1519	0.0690490678
1520	0.0711591542
1521	0.0654340535
1522	0.0609083995
1523	0.0651208684
1524	0.0695165917
1525	0.0739321932
1526	0.0782852247
1527	0.0728030428
1528	0.0636782646
1529	0.0554755367
1530	0.0472211018
1531	0.0531933457
1532	0.0649426654
1533	0.0656613261
1534	0.0652203187
1535	0.0627715886
1536	0.059835989
1537	0.0642038584
1538	0.0739762187
1539	0.0738449544
1540	0.0684189871
1541	0.0645464808
1542	0.0591226369
1543	0.053818658
1544	0.0452982374
1545	0.0428471267
1546	0.0441314206
1547	0.0456758589
1548	0.0485093705
1549	0.0523574837
1550	0.0585026294
1551	0.0597495362
1552	0.0519217812
1553	0.0475833416
1554	0.0503479019
1555	0.0518679507
1556	0.0495356396
1557	0.0489625745
1558	0.0536155254
1559	0.0578558445
1560	0.0638259649
1561	0.067215845
1562	0.0619680807
1563	0.0563175008
1564	0.0503195301
1565	0.0461163372
1566	0.0508660786
1567	0.0548717082
1568	0.050610438
1569	0.0468413532
1570	0.0565301776
1571	0.0678199381
1572	0.063299574
1573	0.0569112524
1574	0.0608367994
1575	0.0668748096
1576	0.0596710369
1577	0.0495136306
1578	0.0602327064
1579	0.0762546957
1580	0.070261769
1581	0.0574029088
1582	0.0539841279
1583	0.0519968271
1584	0.0472027995
1585	0.0421446487
1586	0.0433446094
1587	0.0468278304
1588	0.0509809032
1589	0.0589791723
1590	0.058817938
1591	0.0562583655
1592	0.0556786694
1593	0.0542994365
1594	0.0519323871
1595	0.0495199934
1596	0.0508928634
1597	0.055200275
1598	0.0504950844
1599	0.0397277474
1600	0.0420324728
1601	0.0553853735
1602	0.0580589771
1603	0.0535794571
1604	0.0511447862
1605	0.0491503254
1606	0.0505711883
1607	0.058580596
1608	0.0577922016
1609	0.0479424074
1610	0.0443372019
1611	0.0432873331
1612	0.0405930467
1613	0.0319490507
1614	0.0337287113
1615	0.047897324
1616	0.0534115955
1617	0.0553132445
1618	0.0541053228
1619	0.0506337732
1620	0.0506380163
1621	0.0540013649
1622	0.0534206145
1623	0.0496793687
1624	0.0490901321
1625	0.0543909259
1626	0.054860577
1627	0.0503622219
1628	0.0478289053
1629	0.0419871286
1630	0.0421854854
1631	0.0507989824
1632	0.0564153567
1633	0.0626551732
1634	0.0598869026
1635	0.0424466953
1636	0.0377118029
1637	0.0412602536
1638	0.0390414447
1639	0.0347178578
1640	0.0348584056
1641	0.0426352397
1642	0.0466878116
1643	0.0527616218
1644	0.0522712953
1645	0.0439428762
1646	0.046342805
1647	0.0572223142
1648	0.0536672324
1649	0.0307745449
1650	0.0272234399
1651	0.0342588201
1652	0.042558074
1653	0.0544678271
1654	0.0542795509
1655	0.0445297286
1656	0.0440009497
1657	0.0488798358
1658	0.0434223115
1659	0.0305361412
1660	0.0343288295
1661	0.0510421582
1662	0.0523580164
1663	0.0492707193
1664	0.0468853712
1665	0.0443873256
1666	0.0461245552
1667	0.0509302542
1668	0.0525264069
1669	0.055060789
1670	0.0545985699
1671	0.0506541952
1672	0.0509461612
1673	0.050966315
1674	0.0423164889
1675	0.0299174637
1676	0.037087556
1677	0.0512150601
1678	0.049714908
1679	0.0452786125
1680	0.0413764045
1681	0.0362198688
1682	0.0374845378
1683	0.038707044
1684	0.0380284339
1685	0.0366126075
1686	0.0404437482
1687	0.0461229645
1688	0.0452059507
1689	0.0428749695
1690	0.0451301113
1691	0.045692835
1692	0.0371689685
1693	0.0311786868
1694	0.0391318724
1695	0.0449635722
1696	0.0357409418
1697	0.0286687016
1698	0.0300797559
1699	0.0316578746
1700	0.0337255299
1701	0.0349098518
1702	0.038041167
1703	0.0417649001
1704	0.0504598171
1705	0.0526669547
1706	0.042032741
1707	0.0399223901
1708	0.0536303744
1709	0.0562225655
1710	0.0442947745
1711	0.0363442376
1712	0.0275941696
1713	0.0283274092
1714	0.0356465355
1715	0.0374694243
1716	0.0399088673
1717	0.0429866128
1718	0.0454613268
1719	0.0457350016
1720	0.04582569
1721	0.0399923995
1722	0.0270126164
1723	0.0350954831
1724	0.0514614172
1725	0.0467612669
1726	0.038113825
1727	0.0357176028
1728	0.0356629789
1729	0.0408237576
1730	0.0468273014
1731	0.0440584943
1732	0.0389422663
1733	0.0350729376
1734	0.033448942
1735	0.0288267545
1736	0.0273345523
1737	0.0399054214
1738	0.0458713025
1739	0.0327568054
1740	0.0277402867
1741	0.0413196534
1742	0.0460895523
1743	0.0413931124
1744	0.0370594487
1745	0.0315853469
1746	0.0325978287
1747	0.0383912101
1748	0.0406625196
1749	0.0367351249
1750	0.0330866985
1751	0.0316939428
1752	0.0345836729
1753	0.0404371135
1754	0.0385155827
1755	0.0339156687
1756	0.0353163779
1757	0.0368950292
1758	0.0376041383
1759	0.0376184583
1760	0.0366767831
1761	0.0371111557
1762	0.0406415761
1763	0.0435432419
1764	0.0428728461
1765	0.0418943129
1766	0.0349403471
1767	0.0326138698
1768	0.0431921333
1769	0.0483409762
1770	0.0471879505
1771	0.0450887419
1772	0.0367531553
1773	0.0363622755
1774	0.0427139997
1775	0.046269346
1776	0.0454109423
1777	0.0394747555
1778	0.0282711908
1779	0.0293072686
1780	0.0321484692
1781	0.0276106112
1782	0.0214962233
1783	0.0238630064
1784	0.0268988535
1785	0.0264109112
1786	0.0255448148
1787	0.027102517
1788	0.0281499997
1789	0.0313606039
1790	0.0311871711
1791	0.0299272742
1792	0.0307167321
1793	0.0336846933
1794	0.0352161378
1795	0.03790804
1796	0.0377993137
1797	0.0361843333
1798	0.0343850479
1799	0.0307687074
1800	0.0352458395
1801	0.0429513454
1802	0.041759599
1803	0.0389494225
1804	0.0320808478
1805	0.0271184277
1806	0.0316369273
1807	0.0354412831
1808	0.0349817127
1809	0.0338387638
1810	0.0305976644
1811	0.0283183921
1812	0.0287121944
1813	0.0271234661
1814	0.0225455649
1815	0.0231417008
1816	0.0268158503
1817	0.0265432373
1818	0.0253098607
1819	0.0257373378
1820	0.0263496526
1821	0.0191761144
1822	0.0117869768
1823	0.017134713
1824	0.0234076809
1825	0.0321243368
1826	0.0362060778
1827	0.0388772935
1828	0.0383405574
1829	0.0321736634
1830	0.0333487019
1831	0.0510994419
1832	0.0508647487
1833	0.0408112928
1834	0.0295820031
1835	0.0146541651
1836	0.0166990124
1837	0.0229918715
1838	0.0381965637
1839	0.049728699
1840	0.0464098975
1841	0.0447996855
1842	0.0497634336
1843	0.0499989167
1844	0.0338255055
1845	0.0264419392
1846	0.0214362908
1847	0.0241234191
1848	0.0349902026
1849	0.0320179984
1850	0.023361804
1851	0.0280375592
1852	0.0381204523
1853	0.0363039337
1854	0.0334449634
1855	0.0278739426
1856	0.0232684612
1857	0.0237418152
1858	0.0256079286
1859	0.0276745223
1860	0.0258765612
1861	0.0159930885
1862	0.0214386787
1863	0.0410555303
1864	0.0383172221
1865	0.0288654715
1866	0.0237516277
1867	0.0212875213
1868	0.0265397914
1869	0.0300691463
1870	0.0241456944
1871	0.0216685943
1872	0.027069103
1873	0.0297734663
1874	0.0304255597
1875	0.0304141566
1876	0.0300145224
1877	0.027652245
1878	0.0238786526
1879	0.0223018602
1880	0.0206330437
1881	0.0202042386
1882	0.019031588
1883	0.0165601876
1884	0.0166475661
1885	0.0246784538
1886	0.026367154
1887	0.0233984012
1888	0.0285212602
1889	0.0378202647
1890	0.0360883325
1891	0.0293725058
1892	0.0277408175
1893	0.0253058821
1894	0.0221944563
1895	0.0214575063
1896	0.0283510126
1897	0.0303879008
1898	0.0247450136
1899	0.0218279716
1900	0.0214598924
1901	0.020339217
1902	0.0181962531
1903	0.0146708721
1904	0.0127099566
1905	0.0129133537
1906	0.0135215577
1907	0.0202944018
1908	0.0222037397
1909	0.0185340978
1910	0.0194930099
1911	0.0294260737
1912	0.0308037139
1913	0.0254456364
1914	0.0228831451
1915	0.0201469585
1916	0.0233602151
1917	0.0267766006
1918	0.0270059891
1919	0.0282934643
1920	0.033035785
1921	0.0342598781
1922	0.0327819996
1923	0.0268426351
1924	0.0136318747
1925	0.00734975655
1926	0.00366579485
1927	0.0130439578
1928	0.0228412468
1929	0.0163611658
1930	0.0131675331
1931	0.0206211098
1932	0.022193661
1933	0.0191456191
1934	0.0191981234
1935	0.0211199243
1936	0.0214437172
1937	0.020830607
1938	0.0169676468
1939	0.0135100223
1940	0.0187520813
1941	0.0185226966
1942	0.0116991997
1943	0.0137962895
1944	0.0247044396
1945	0.0245996919
1946	0.0194439515
1947	0.0140572321
1948	0.00985125266
1949	0.0220493991
1950	0.0296896659
1951	0.0272523463
1952	0.0246044658
1953	0.0185892582
1954	0.0208722427
1955	0.0290129147
1956	0.0281473473
1957	0.0259049367
1958	0.0233450979
1959	0.0220061764
1960	0.0226253867
1961	0.0218966529
1962	0.0151177105
1963	0.0134528736
1964	0.0128466589
1965	0.0150500881
1966	0.0187170766
1967	0.0135369375
1968	0.00864426047
1969	0.0192527529
1970	0.0228436328
1971	0.0145410635
1972	0.0117523707
1973	0.0139386933
1974	0.0213829894
1975	0.0292200241
1976	0.0255567469
1977	0.0200761538
1978	0.0164929628
1979	0.015302279
1980	0.0139270267
1981	0.0149466656
1982	0.0186579414
1983	0.0260788985
1984	0.0343622416
1985	0.025280159
1986	0.0169591606
1987	0.0202880371
1988	0.0237442032
1989	0.0263859853
1990	0.0250624418
1991	0.0188629292
1992	0.0171572547
1993	0.0186184272
1994	0.0170209482
1995	0.0160790086
1996	0.0224225167
1997	0.0231037792
1998	0.0143545065
1999	0.0144080734
2000	0.0185439102
2001	0.0156478155
2002	0.0109834643
2003	0.0080939997
2004	0.0066596102
2005	0.010476429
2006	0.0174420625
2007	0.0272900015
2008	0.0259685814
2009	0.0207141899
2010	0.0211220458
2011	0.0211589076
2012	0.0161018148
2013	0.0145528642
2014	0.0176035613
2015	0.0172065794
2016	0.0141288321
2017	0.016069727
2018	0.0190663263
2019	0.0187549982
2020	0.0178231336
2021	0.0200392921
2022	0.0207075607
2023	0.0188297797
2024	0.013601644
2025	0.00903806183
2026	0.019276619
2027	0.0283443816
2028	0.0159989223
2029	0.00927885063
2030	0.00360413967
2031	0.00520029292
2032	0.0102534071
2033	0.0138572827
2034	0.017919397
2035	0.0159405805
2036	0.015509123
2037	0.0153065231
2038	0.018691618
2039	0.0247877091
2040	0.0315515362
2041	0.0364874415
2042	0.0209146701
2043	0.00935562141
2044	0.00878719613
2045	0.0104249828
2046	0.0160508994
2047	0.0192654822
2048	0.0234063566
2049	0.0203127004
2050	0.0157512389
2051	0.00819954462
2052	0.00697756791
2053	0.0117869768
2054	0.0151665043
2055	0.019012494
2056	0.0185945611
2057	0.0189777538
2058	0.0199377276
2059	0.0154629834
2060	0.0032847235
2061	0.00496162567
2062	0.0130625209
2063	0.0209121518
2064	0.0249411203
2065	0.0168668739
2066	0.0110211195
2067	0.00939937681
2068	0.0144688003
2069	0.0245904103
2070	0.0159864593
2071	0.00897905789
2072	0.0111533161
2073	0.0166857541
2074	0.0290566701
2075	0.0213315431
2076	0.006113593
2077	0.0025689872
2078	0.00174107694
2079	0.00307774614
2080	0.00487597054
2081	0.00352630741
2082	0.00218022475
2083	0.000193585642
2084	0.00302855438
2085	0.00601255707
2086	0.00151540386
2087	0.003187533
2088	0.0102215856
2089	0.0169238914
2090	0.0232679304
2091	0.015671948
2092	0.0111128744
2093	0.0196681656
2094	0.0193994008
2095	0.0133544905
2096	0.0111836791
2097	0.00808763597
2098	-6.9478614e-05
2099	0.0010278601
2100	0.0194869097
2101	0.0188822877
2102	0.0107795354
2103	0.00501041953
2104	0.00189236552
2105	0.00609184755
2106	0.00653099548
2107	0.00208608387
2108	0.00573371351
2109	0.0113712987
2110	0.0115642203
2111	0.00973523408
2112	0.00707741082
2113	0.00525969407
2114	0.00169838232
2115	0.00275925803
2116	0.00423302781
2117	0.00927566737
2118	0.0103387982
2119	0.00638182834
2120	0.00205280306
2121	-0.00438113417
2122	-0.00126281451
2123	0.00169095746
2124	0.00774925854
2125	0.00872593746
2126	0.00841116253
2127	0.0167353433
2128	0.023927182
2129	0.00507539045
2130	-0.000985828112
2131	0.00824621692
2132	0.00776543515
2133	0.00533818966
2134	0.00758908596
2135	0.0092064552
2136	0.0125806779
2137	0.0164197721
2138	0.0197234564
2139	0.0158289392
2140	0.0115544088
2141	0.0102173425
2142	0.0088532269
2143	0.00468278257
2144	0.00609264337
2145	0.00935867056
2146	0.0114226118
2147	0.0133897597
2148	0.0133975837
2149	0.0167303048
2150	0.0197568703
2151	0.0124854762
2152	0.00645700842
2153	0.00666637253
2154	0.00656971242
2155	0.00872063357
2156	0.0161852147
2157	0.0226861127
2158	0.00611332757
2159	0.00460017752
2160	0.0150012933
2161	0.0104031051
2162	0.00243811822
2163	0.00720350631
2164	0.00977130048
2165	0.00857027341
2166	0.00935827382
2167	0.0116769243
2168	0.0020696423
2169	-0.00151155877
2170	0.00861296803
2171	0.00710591814
2172	0.000343813561
2173	0.00802597962
2174	0.0142341107
2175	0.00922581274
2176	0.0107493047
2177	0.017463278
2178	0.0160583239
2179	0.0114965979
2180	0.00339822331
2181	0.00346040912
2182	0.00974531099
2183	0.00754930824
2184	0.00468384381
2185	0.00535701774
2186	0.00869464502
2187	0.0170013253
2188	0.0175197627
2189	0.0146085545
2190	0.0012331137
2191	-0.00392448436
2192	-0.000648379093
2193	0.00242857146
2194	0.00445697736
2195	0.00363463652
2196	0.00309564592
2197	0.00169917766
2198	0.00014532177
2199	-0.00119519222
2200	-0.00208038208
2201	0.00035906164
2202	0.00764862075
2203	0.00370119768
2204	-0.00423488393
2205	0.00226839934
2206	0.00489400327
2207	0.00266524963
2208	0.00422533695
2209	0.00734697143
2210	0.00424363511
2211	0.00468185497
2212	0.0104660867
2213	0.0038414814
2214	-0.00710883504
2215	-0.00721464399
2216	-0.00176401588
2217	0.0138888406
2218	0.00776013127
2219	-0.00237341295
2220	0.002240289
2221	0.00379944919
2222	-0.00121428561
2223	-0.00297644525
2224	-0.00412310846
2225	-0.000939818332
2226	-0.000897521386
2227	-0.00438736565
2228	-0.00206460361
2229	0.00211591716
2230	0.00829050317
2231	0.0107792709
2232	0.0112497099
2233	0.016369123
2234	0.0202079508
2235	0.0169350281
2236	0.00882405601
2237	-0.00464035291
2238	-0.00415559392
2239	-0.00187406805
2240	0.00882723927
2241	0.00844696164
2242	0.00295549538
2243	0.00205054879
2244	0.0045793606
2245	0.0134123005
2246	0.0088365199
2247	-0.00176613731
2248	0.00114361336
2249	0.00352670532
2250	0.00621502614
2251	0.00647689728
2252	0.00638779439
2253	0.00850238651
2254	0.00863789581
2255	0.00590873649
2256	0.00656719273
2257	0.00820405222
2258	0.006742083
2259	0.00321855978
2260	-0.00283695711
2261	0.000574922888
2262	0.0032914856
2263	0.00013882434
2264	0.00577415479
2265	0.0161590949
2266	0.00517695677
2267	-0.00369562884
2268	-0.00667751068
2269	-0.00306170224
2270	0.00311911502
2271	0.00399449281
2272	0.0061390507
2273	0.0105929775
2274	0.00273499312
2275	-0.00416606851
2276	0.00293971668
2277	0.00281030615
2278	-0.00119585497
2279	0.00635862444
2280	0.0116104959
2281	0.0115211289
2282	0.0091223903
2283	0.00529270992
2284	-0.00298320735
2285	-0.00494902954
2286	-0.00359273655
2287	0.00157613168
2288	0.00567616895
2289	-0.00114507228
2290	0.000255771796
2291	0.00586126838
2292	0.0047152685
2293	0.00269707199
2294	-0.000948569446
2295	0.00167411752
2296	0.00567709748
2297	0.0195128992
2298	0.0173036363
2299	-0.000948172063
2300	0.0042709494
2301	0.00791712105
2302	-0.00225301832
2303	-0.00640304293
2304	-0.00841925014
2305	0.00176560681
2306	0.00453891978
2307	0.00168803986
2308	0.000631407369
2309	-0.000641882187
2310	0.000756177236
2311	0.00208847038
2312	0.00440977421
2313	0.00237155659
2314	4.78660222e-05
2315	-0.000568425574
2316	-0.00373169407
2317	-0.00582533609
2318	0.00283099059
2319	0.0050105527
2320	0.00529628946
2321	0.0097885374
2322	0.010673197
2323	0.00533633353
2324	0.00163672643
2325	0.000199021888
2326	0.00709849223
2327	0.00893782172
2328	0.00729512703
2329	0.00263236649
2330	0.00278338976
2331	0.0107079353
2332	0.0089485608
2333	0.00499729346
2334	-0.00111245434
2335	-0.00289688958
2336	-0.00454462133
2337	0.00254949555
2338	0.00502394466
2339	0.00446095504
2340	0.00348228682
2341	-0.00019080122
2342	-0.00909839105
2343	-0.00783677027
2344	-0.00331972819
2345	0.00153078488
2346	0.00096103322
2347	-0.00540448586
2348	0.00384864048
2349	0.00843065325
2350	0.00014240481
2351	0.00489002559
2352	0.0100046629
2353	-0.00232846383
2354	-0.00309471786
2355	0.000680864323
2356	-0.00679286616
2357	-0.0101082185
2358	-0.00815008674
2359	-0.00552249374
2360	-0.00194460712
2361	0.0038980986
2362	0.00462696096
2363	0.00288270228
2364	-0.00142988143
2365	-0.00541734789
2366	-0.013645133
2367	-0.0132525265
2368	-0.0124500748
2369	-0.00981160812
2370	0.000930139038
2371	0.00717566162
2372	-0.0106537063
2373	-0.0058649811
2374	0.00631287973
2375	0.00137565145
2376	0.00040613208
2377	0.0020992104
2378	0.000827910379
2379	-0.00124915829
2380	-0.00732721528
2381	-0.00268036523
2382	0.000328432565
2383	-0.00547568873
2384	-0.00408386067
2385	-0.00120129157
2386	0.00331521966
2387	-0.000313847442
2388	-0.00973589718
2389	-0.0120568033
2390	-0.00948980544
2391	0.000785612734
2392	0.00344768027
2393	0.00282144407
2394	-4.77330759e-05
2395	0.000640291022
2396	0.00116085098
2397	-0.00434308033
2398	-0.00693314895
2399	-0.00956167094
2400	-0.00914890878
2401	-0.00423581246
2402	0.00564500922
2403	0.00958248787
2404	0.0130885085
2405	0.0164762568
2406	0.00560629228
2407	-0.00417349394
2408	-0.00795040186
2409	-0.00679750694
2410	-0.00422321586
2411	0.00361209549
2412	0.0103910388
2413	0.0146605298
2414	0.00324759702
2415	-0.000798076508
2416	-0.00352431834
2417	-0.00434414065
2418	-0.00467323652
2419	-0.0063144709
2420	-0.00700050686
2421	-0.00382702798
2422	0.00453573745
2423	0.00055304484
2424	-0.000878560415
2425	0.00940468069
2426	0.0067105256
2427	0.00144592533
2428	-0.00449755089
2429	-0.00386998849
2430	-0.001999103
2431	-0.00985655747
2432	-0.00834910851
2433	-0.00390671706
2434	-0.00491800299
2435	-0.00317785377
2436	0.00112690672
2437	7.05394486e-05
2438	-0.00149339356
2439	-0.00144499727
2440	-0.00196661754
2441	-0.00339437788
2442	-0.00555829424
2443	0.000897521153
2444	0.00480569666
2445	0.00540501624
2446	0.0013440944
2447	-0.000921255443
2448	0.00189435424
2449	0.00573358126
2450	0.00864730962
2451	0.0137524009
2452	0.0100315809
2453	0.00212108856
2454	-0.00403214945
2455	-0.00322916708
2456	0.000148371328
2457	-0.00269309431
2458	-0.00456451019
2459	-0.00321126706
2460	0.0148466909
2461	0.0170625821
2462	0.013128154
2463	0.00204975344
2464	-0.00216497714
2465	-0.00504515925
2466	-0.00122197589
2467	0.00209430465
2468	0.00682614651
2469	0.0104415566
2470	0.00937126763
2471	0.00358875911
2472	0.00214309874
2473	0.000243042596
2474	-0.00355017418
2475	-0.00792242493
2476	-0.00744562084
2477	-0.000217850786
2478	0.00360546587
2479	0.00691127172
2480	0.00787853636
2481	0.0112406947
2482	0.0101963924
2483	0.00543723628
2484	0.00636604987
2485	0.0082037868
2486	0.00840426795
2487	-0.00135125406
2488	-0.00506451819
2489	0.000507300312
2490	-0.00727404561
2491	-0.0101962602
2492	-0.00215224782
2493	-0.00262838858
2494	-0.00146117364
2495	0.00581764523
2496	-0.000367017114
2497	-0.00336321862
2498	0.00187579158
2499	-0.0083805332
2500	-0.0120952548
2501	0.00052626105
2502	0.00379109569
2503	0.00208939868
2504	-0.00565946242
2505	-0.00110052095
2506	0.000711493427
2507	-0.00250521
2508	-0.00438047107
2509	-0.00256487681
2510	0.00607673172
2511	-0.00126719009
2512	-0.00500763534
2513	-0.00386110484
2514	-0.00772910379
2515	-0.00686778082
2516	-0.00138413697
2517	-0.00813258439
2518	-0.00488273287
2519	0.0127388611
2520	-0.00323805073
2521	-0.0106956046
2522	-0.00606784783
2523	-0.00524988305
2524	-0.00555232679
2525	-0.00530053303
2526	-0.00519101135
2527	-0.00246132165
2528	0.00206685788
2529	0.00378101878
2530	0.00171230431
2531	-0.00243188604
2532	-0.00514208432
2533	-0.00382344844
2534	0.000179132912
2535	0.0123422761
2536	0.00635835901
2537	-0.0043414887
2538	-0.00883598998
2539	-0.00569738355
2540	-0.00244832784
2541	0.0016493228
2542	0.00191888411
2543	0.00131770805
2544	-0.00264748232
2545	0.014481796
2546	0.0188541785
2547	-0.00614488451
2548	-0.00630359771
2549	-0.00730997836
2550	-0.0119014047
2551	-0.00513213966
2552	0.00178417005
2553	0.00777325779
2554	0.00438617263
2555	0.0016560849
2556	-0.00142616942
2557	-0.0055498071
2558	-0.00873442367
2559	-0.0109516419
2560	-0.00530477567
2561	-0.00278007472
2562	-0.00112650893
2563	-0.00173577352
2564	0.000586988404
2565	-0.00268010003
2566	-0.0167330895
2567	-0.00383538147
2568	0.000848727068
2569	-0.00801325124
2570	-0.00378022296
2571	0.00219534035
2572	0.0135650476
2573	0.00398693513
2574	0.0013834741
2575	0.00098317652
2576	8.44616443e-05
2577	-0.0102119055
2578	-0.0160014424
2579	-0.00182089803
2580	0.0052213748
2581	0.0061467411
2582	0.000854694284
2583	-0.00482730893
2584	-0.00669965288
2585	-0.00726158172
2586	-0.0061061671
2587	-0.00442276848
2588	0.000134316739
2589	0.0032010572
2590	0.00295523019
2591	-3.91150825e-05
2592	-0.00613016635
2593	-0.00295496499
2594	0.00145984744
2595	0.00335420202
2596	-0.00303730532
2597	-0.00870525278
2598	-0.0118119046
2599	-0.00900292397
2600	-0.00501943612
2601	0.000493245898
2602	0.00808670744
2603	0.00568478741
2604	0.00259325188
2605	0.00245402916
2606	-0.00103700894
2607	-0.00486987131
2608	-0.0148623362
2609	-0.00599929737
2610	-0.00366062438
2611	-0.00735691655
2612	-0.00877791457
2613	-0.0107609732
2614	-0.0126892719
2615	-0.00578807713
2616	-0.00668838248
2617	-0.00520639261
2618	0.00706759887
2619	0.00350098289
2620	0.000391546986
2621	-0.000749282655
2622	0.00426458474
2623	-1.06075313e-05
2624	-0.00828347541
2625	-0.0121470988
2626	-0.0146098807
2627	-0.0143013354
2628	-0.0078052124
2629	-0.00828307774
2630	-0.00433379831
2631	0.00391056202
2632	0.00239820732
2633	0.00151659758
2634	-0.000989275519
2635	-0.011373817
2636	-0.00586842839
2637	-0.00283629447
2638	-0.00759598147
2639	0.000287991716
2640	-0.00238017482
2641	-0.0120908804
2642	-0.00706004119
2643	-0.0065385527
2644	-0.00800237805
2645	-0.0114725986
2646	-0.00202257186
2647	-0.0012068603
2648	-0.00803923886
2649	-0.0004420646
2650	0.000885455171
2651	-3.8982369e-05
2652	-0.00524139684
2653	-0.00139713124
2654	5.44954091e-05
2655	-0.0029003364
2656	-0.00660179928
2657	-0.0111785084
2658	-0.013825858
2659	-0.0183002055
2660	-0.00672444794
2661	-0.00206394098
2662	-0.0115571935
2663	-0.00600460172
2664	-0.00666226214
2665	-0.00781475939
2666	0.000761480536
2667	-0.00137299951
2668	-0.00501824263
2669	-0.00978628267
2670	-0.00484931935
2671	-0.00386693887
2672	-0.00392395398
2673	0.00496374723
2674	0.00238216366
2675	-0.0022695926
2676	-0.00488260062
2677	-0.00604729634
2678	-0.00365638151
2679	-0.00150559226
2680	-0.00592464767
2681	-0.000976413954
2682	-0.00131068041
2683	-0.0136253778
2684	-0.000835069921
2685	-0.00119479478
2686	-0.00671609491
2687	-0.00816255063
2688	-0.00782735553
2689	-0.00569208013
2690	-0.000217186869
2691	-0.0056537604
2692	0.00133892288
2693	0.00594692305
2694	-0.0160425454
2695	-0.0127983959
2696	-0.00888995547
2697	-0.00464817649
2698	-0.00383657496
2699	-0.00622748956
2700	-0.00936039537
2701	-0.0108561749
2702	-0.00669262558
2703	-0.0102048786
2704	-0.0152278952
2705	-0.00359313423
2706	-0.00333762821
2707	-0.0030342557
2708	-0.000467389822
2709	0.000760818133
2710	-0.00338920695
2711	-0.0081449151
2712	-0.0109412996
2713	-0.00740186498
2714	-0.00542410975
2715	-0.00555192959
2716	-0.0124102961
2717	0.00536709465
2718	0.00900756475
2719	-0.00440751994
2720	-0.00977010652
2721	-0.00851060636
2722	-0.00582268368
2723	-0.00479866937
2724	-0.000904946355
2725	-0.000872328645
2726	-0.00308702746
2727	-0.0104770921
2728	-0.0107047539
2729	-0.00930390973
2730	-0.00597211532
2731	nan
2732	nan
2733	nan
2734	nan
2735	nan
2736	nan
2737	nan
2738	nan
2739	nan
2740	nan
2741	nan
2742	nan
2743	nan
2744	nan
2745	nan
2746	nan
2747	nan
2748	nan
2749	nan
2750	nan
2751	nan
2752	nan
2753	nan
2754	nan
2755	nan
2756	nan
2757	nan
2758	nan
2759	nan
2760	nan
2761	nan
2762	nan
2763	nan
2764	nan
2765	nan
2766	nan
2767	nan
2768	nan
2769	nan
2770	nan
2771	nan
2772	nan
2773	nan
2774	nan
2775	nan
2776	nan
2777	nan
2778	nan
2779	nan
2780	nan
2781	nan
2782	nan
2783	nan
2784	nan
2785	nan
2786	nan
2787	nan
2788	nan
2789	nan
2790	nan
2791	nan
2792	nan
2793	nan
2794	nan
2795	nan
2796	nan
2797	nan
2798	nan
2799	nan
2800	nan
2801	nan
2802	nan
2803	nan
2804	nan
2805	nan
2806	nan
2807	nan
2808	nan
2809	nan
2810	nan
2811	nan
2812	nan
2813	nan
2814	nan
2815	nan
2816	nan
2817	nan
2818	nan
2819	nan
2820	nan
2821	nan
2822	nan
2823	nan
2824	nan
2825	nan
2826	nan
2827	nan
2828	nan
2829	nan
2830	nan
2831	nan
2832	nan
2833	nan
2834	nan
2835	nan
2836	nan
2837	nan
2838	nan
2839	nan
2840	nan
2841	nan
2842	nan
2843	nan
2844	nan
2845	nan
2846	nan
2847	nan
2848	nan
2849	nan
2850	nan
2851	nan
2852	nan
2853	nan
2854	nan
2855	nan
2856	nan
2857	nan
2858	nan
2859	nan
2860	nan
2861	nan
2862	nan
2863	nan
2864	nan
2865	nan
2866	nan
2867	nan
2868	nan
2869	nan
2870	nan
2871	nan
2872	nan
2873	nan
2874	nan
2875	nan
2876	nan
2877	nan
2878	nan
2879	nan
2880	nan
2881	nan
2882	nan
2883	nan
2884	nan
2885	nan
2886	nan
2887	nan
2888	nan
2889	nan
2890	nan
2891	nan
2892	nan
2893	nan
2894	nan
2895	nan
2896	nan
2897	nan
2898	nan
2899	nan
2900	nan
2901	nan
2902	nan
2903	nan
2904	nan
2905	nan
2906	nan
2907	nan
2908	nan
2909	nan
2910	nan
2911	nan
2912	nan
2913	nan
2914	nan
2915	nan
2916	nan
2917	nan
2918	nan
2919	nan
2920	nan
2921	nan
2922	nan
2923	nan
2924	nan
2925	nan
2926	nan
2927	nan
2928	nan
2929	nan
2930	nan
2931	nan
2932	nan
2933	nan
2934	nan
2935	nan
2936	nan
2937	nan
2938	nan
2939	nan
2940	nan
2941	nan
2942	nan
2943	nan
2944	nan
2945	nan
2946	nan
2947	nan
2948	nan
2949	nan
2950	nan
2951	nan
2952	nan
2953	nan
2954	nan
2955	nan
2956	nan
2957	nan
2958	nan
2959	nan
2960	nan
2961	nan
2962	nan
2963	nan
2964	nan
2965	nan
2966	nan
2967	nan
2968	nan
2969	nan
2970	nan
2971	nan
2972	nan
2973	nan
2974	nan
2975	nan
2976	nan
2977	nan
2978	nan
2979	nan
2980	nan
2981	nan
2982	nan
2983	nan
2984	nan
2985	nan
2986	nan
2987	nan
2988	nan
2989	nan
2990	nan
2991	nan
2992	nan
2993	nan
2994	nan
2995	nan
2996	nan
2997	nan
2998	nan
2999	nan
3000	nan
